alpha,gamma,delta,sigma,tau
0.300000010211326,0.099999995801018,0.0299984282987876,0.050000269522481,0.0999906065288233
0.30000002152343,0.0999999971523902,0.0299965958064413,0.0500005780437971,0.0999770772876015
0.300000034579591,0.100000009217015,0.0299944948744862,0.0500009260253828,0.0999582737680078
0.300000050181525,0.100000038260922,0.0299920921060742,0.050001318902263,0.0999329055799822
0.300000069274718,0.100000091444004,0.0299893226677788,0.0500017683364324,0.0998995566831303
0.300000085035562,0.100000164597181,0.0299861048547097,0.050002273447004,0.0998567364635353
0.300000106451548,0.100000276623003,0.0299823427584533,0.0500028719797364,0.0998029471129602
0.300000134469353,0.100000434691656,0.0299779904505873,0.0500035747685015,0.0997367125668757
0.300000176933242,0.100000655685375,0.0299729767875188,0.0500044168736724,0.0996567794456868
0.300000227210807,0.100000931274569,0.0299672103143103,0.0500054047654741,0.0995622363153123
0.300000284944282,0.100001262206413,0.0299606068060122,0.0500065649545438,0.0994527782768308
0.300000351122807,0.100001645678648,0.0299531043271519,0.0500079151226875,0.0993282064253272
0.300000425800728,0.100002076772693,0.0299446408383676,0.0500094719683158,0.0991884453756217
0.300000502801064,0.100002537849715,0.0299351321501207,0.0500112327360962,0.099033638014553
0.300000588461681,0.10000302719125,0.0299244720867508,0.0500132304782995,0.0988640940179942
0.300000683391738,0.100003533125971,0.0299125305191279,0.0500154810884387,0.098680205353795
0.300000787870881,0.100004043845626,0.0298991487306782,0.0500180005748821,0.0984823546104134
0.300000906177108,0.10000455576648,0.0298841302831581,0.0500208218557326,0.0982707943620293
0.300001031966643,0.100005049780009,0.0298672336329969,0.0500239464450464,0.0980455635037124
0.300001166132479,0.100005518736943,0.0298481823535657,0.0500274031543994,0.0978063718943137
0.300001302644533,0.100005946651321,0.0298266301972579,0.0500312144375117,0.0975524620108115
0.30000144841293,0.100006342452121,0.0298022010215899,0.0500354452456289,0.097282443035776
0.300001605784436,0.100006710865785,0.0297744666889788,0.0500401518702043,0.0969942146097942
0.300001789016547,0.100007075124303,0.0297429711111411,0.0500454179719754,0.096684864893363
0.300001978350522,0.100007412208827,0.0297071360144398,0.050051276984154,0.0963506213783601
0.300002187231561,0.100007742264526,0.0296663915753876,0.0500578287020715,0.0959868296729305
0.300002420152157,0.100008079784233,0.0296201353762489,0.0500651577912106,0.0955880183396979
0.300002687488187,0.100008450004138,0.0295677203014081,0.0500733565780561,0.0951480022536198
0.300003006511515,0.100008883025352,0.0295082987651146,0.050082542035113,0.0946599825095685
0.300003398880221,0.100009383101851,0.0294406438331773,0.0500928776513216,0.0941166527959458
0.300003885693953,0.10000991499537,0.0293631466240361,0.0501045871172841,0.0935103954299283
0.300004481103901,0.100010431377244,0.0292740738309104,0.0501179273795434,0.0928334012069642
0.300005190989968,0.100010877605398,0.0291717900911794,0.0501331664955673,0.0920778784030494
0.300006004488377,0.100011184466458,0.0290548741853966,0.0501505564854326,0.0912361769024528
0.300006875691811,0.100011272367908,0.0289222250212067,0.0501703136570629,0.0903008851893158
0.300007749027681,0.10001105568384,0.0287732079829103,0.0501926050183319,0.0892649689681997
0.300008601035397,0.100010448560963,0.0286077535067547,0.0502175331509336,0.0881219894732334
0.300009427507198,0.100009375842002,0.0284263199319293,0.0502451322851332,0.0868663067283495
0.300010205873561,0.100007779621542,0.0282297441663371,0.0502753849046411,0.0854933286347683
0.30001090339644,0.100005593334962,0.0280190366246899,0.0503082503380795,0.0839998006065566
0.300011490015997,0.100002793765823,0.0277953963540551,0.050343664736652,0.082384099439545
0.300011928538337,0.0999994394359183,0.0275601807583831,0.0503815355337285,0.0806464829541172
0.300012227011775,0.0999955986658519,0.0273147278505363,0.0504217621749773,0.0787893041611968
0.300012406138976,0.0999913290432603,0.0270601587088194,0.0504642756496903,0.0768172350681591
0.300012517701751,0.0999867625626503,0.0267975074290744,0.0505090984533598,0.0747377007255508
0.300012567587667,0.0999819864052616,0.026527269813774,0.0505561611542305,0.0725595400207067
0.300012563414756,0.0999770559663982,0.0262493144225322,0.0506053558616535,0.0702932540942689
0.300012534818895,0.099972007932951,0.0259640073904551,0.0506567524632768,0.0679526638969758
0.300012492195433,0.0999668420423876,0.0256705081145426,0.0507102390549812,0.0655517222294646
0.300012473229371,0.0999615921082814,0.0253682760093598,0.0507659441776207,0.0631075561797291
0.300012470347789,0.0999562442666529,0.0250571180162206,0.0508238472040463,0.0606377757271309
0.300012482015321,0.0999507592749592,0.0247381716569485,0.0508839220530316,0.0581615789832111
0.300012521112462,0.0999450572807987,0.0244124775564605,0.050945952645201,0.0556971011885657
0.30001256014672,0.0999391394030656,0.0240823362142347,0.051009625012188,0.0532628415281087
0.300012561034868,0.0999330351865324,0.0237498610019451,0.0510747905437227,0.0508773616102571
0.30001251289127,0.0999267502142712,0.0234165838022161,0.0511411401410304,0.0485566480816951
0.300012430217854,0.0999202722320058,0.0230833707494374,0.0512083504552865,0.0463142540271798
0.300012310146139,0.0999136397913553,0.0227508728048532,0.0512762897733523,0.0441628565262932
0.300012159303241,0.0999069369240726,0.0224181911783506,0.051344596271733,0.0421099009886211
0.300012011306575,0.099900193133713,0.0220848344019189,0.0514136138427111,0.0401661863594103
0.300011882908204,0.0998934187645858,0.0217499524887736,0.0514840643795231,0.0383418081237436
0.300011798610743,0.0998866478333863,0.0214116219118182,0.0515562178642753,0.03663971871199
0.300011812962868,0.0998798694873444,0.0210676299429687,0.0516303820784805,0.035060685073795
0.300011951809703,0.099873066960345,0.0207154970737995,0.051706872672739,0.0336035206438224
0.300012222558013,0.0998662097955971,0.0203525499420258,0.0517860181557815,0.0322654926556566
0.300012599694897,0.0998592869147954,0.0199761564010938,0.0518681373867271,0.0310426830308096
0.300013074888417,0.099852295531537,0.0195838906434958,0.0519535199793179,0.0299302811514564
0.300013649298379,0.0998452435592574,0.0191734678410087,0.0520423958898252,0.0289226985271936
0.300014329723688,0.0998381342549085,0.0187425356448787,0.0521349182859858,0.0280135671348942
0.300015081945722,0.099830986530831,0.0182884900316676,0.0522311782135448,0.0271958520054268
0.300015887782021,0.0998238041049337,0.0178084081865367,0.0523312366951749,0.0264620768961315
0.30001670757725,0.099816623320654,0.0172992025521824,0.0524351592894497,0.0258046357294451
0.300017503656391,0.0998094425190144,0.016757017480516,0.0525430993603077,0.025216160100022
0.300018276692372,0.0998022214512023,0.0161772043326463,0.0526553120524573,0.0246898221056654
0.300019066037216,0.0997949364452396,0.0155541847780783,0.0527721036842052,0.0242194500114523
0.300019938769586,0.0997875522667854,0.014881311425435,0.052893735993221,0.0237994355393101
0.300020957049578,0.0997800585118009,0.0141500535409673,0.053020389796883,0.0234245942460581
0.300022134525993,0.0997724507091807,0.0133490182094169,0.0531521774750837,0.0230902422153119
0.300023422266629,0.0997647155092651,0.0124633808994197,0.0532890497758491,0.0227922943928734
0.300024753233836,0.0997568935679637,0.0114753168774453,0.053430534192475,0.022527182899843
0.300025975692697,0.0997492216543508,0.010367021480167,0.0535750484335923,0.022291300230069
0.300026917114964,0.0997421809604566,0.0091326475920264,0.0537183977008202,0.0220797134891082
0.300026408875498,0.0997374372638844,0.00782554955458917,0.0538504493229042,0.0218833067750594
0.300020722002233,0.0997394218227794,0.00663875405032971,0.0539544591784853,0.0216884076487574
0.300010352896565,0.0997486722147645,0.00570284193764581,0.054027258907233,0.0214945700975499
0.299995225084678,0.099764672626315,0.00502286628125274,0.0540753042215322,0.0213089866861547
0.299975506897164,0.0997846300008141,0.00461285053338135,0.0541023472358949,0.0211360939180972
0.299952155806175,0.0998072155966865,0.00435688226001349,0.0541186132755286,0.0209844325914497
0.299926393894044,0.099831391889207,0.00417106673798542,0.054130261536348,0.0208585242419614
0.299898763652648,0.0998567668969151,0.00401909508529581,0.0541396515635635,0.0207590661560114
0.299870347950425,0.0998820102058135,0.00387001121343501,0.054148661349421,0.0206864907365998
0.299841457444542,0.0999070208421706,0.00372604203104225,0.0541571661064069,0.0206350041208263
0.299812184173613,0.0999320978352928,0.00360145619317864,0.0541641842762886,0.0205988757622773
0.299784228886256,0.0999556001056613,0.00346646290592557,0.054171643749652,0.020575625777145
0.299757047697622,0.0999783147876235,0.0033412551948292,0.0541783804114596,0.0205607152794261
0.299730419246661,0.100000630165097,0.00322147715038789,0.0541846760745181,0.020551986831194
0.299704526939669,0.100022453832747,0.0030957411390986,0.0541912342926222,0.020548464232152
0.299679129315963,0.100044044010027,0.00297130465471277,0.0541977152088758,0.0205484728267181
0.299654409646963,0.100065122587745,0.00284914746757983,0.0542041509703923,0.0205509612995914
0.299631054698534,0.100084838303673,0.00272462076750374,0.0542108040672744,0.0205553200686232
0.299609930564655,0.100102230076213,0.00260013501369289,0.0542173949805911,0.020561219742193
0.299591211856375,0.100117151468467,0.0024804325855912,0.0542236598671588,0.020567208414266
0.299575134704446,0.100129428118851,0.00237151573113492,0.0542292042962714,0.0205726463845683
0.299561590113315,0.1001392827838,0.00227767826064861,0.0542337530613114,0.0205771484350311
0.299550259315339,0.100147186607909,0.0021963911069686,0.0542375017667958,0.0205806888147475
0.299541199447054,0.100153094989942,0.00212478938332697,0.0542405441073649,0.0205835823249079
0.299534168858694,0.100157342028892,0.0020633614636727,0.054242937221709,0.020585864256598
0.299528875030454,0.100160301927469,0.00201468783542814,0.0542447312786316,0.0205875759631866
0.299524891638518,0.100162406118745,0.00197715290342482,0.0542461333823131,0.020588919399314
0.299521759780093,0.100164046870332,0.00194299922965532,0.054247513840417,0.0205902596579847
0.29951915068776,0.100165488427853,0.00191155378203711,0.0542488876686966,0.0205916086803523
0.299516859167698,0.100166879601164,0.00188683332654662,0.0542500491338872,0.0205927576956804
0.299514768216576,0.100168290310296,0.00187573733954971,0.0542506648140123,0.0205933705100329
0.299512815614885,0.100169742713662,0.00188386461437472,0.0542504700054893,0.0205931802010972
0.299510977366681,0.100171220773089,0.00190932907524735,0.0542495508930876,0.0205922713693585
0.299509260565298,0.100172686303737,0.00194552318011269,0.0542482159348486,0.0205909514268091
0.299507694720668,0.100174099095015,0.00198588024373978,0.0542467890631623,0.0205895436796138
0.299506331674599,0.100175410083687,0.00202583893036315,0.054245516967573,0.0205882944230381
0.29950521093477,0.100176579345726,0.00207219695808045,0.0542440086420075,0.0205868122766525
0.299504347182911,0.10017756818077,0.00213011782470888,0.0542418754535521,0.0205847081153954
0.29950370784106,0.100178386966312,0.00219761867936205,0.0542391305578886,0.020581994554939
0.299503211120697,0.100179169414272,0.00226914726898964,0.0542360141585576,0.0205789114041445
0.299502982599498,0.100179800352848,0.00233760946518152,0.0542328088599842,0.0205757099453265
0.299502754518981,0.10018062006884,0.0023981994721968,0.0542298780763018,0.0205727831718906
0.299502452868351,0.100181758627509,0.00245035371919878,0.0542273877083457,0.0205703310913324
0.299502215338669,0.100183005670522,0.00249519918083944,0.0542252727239495,0.0205682558788205
0.299502040839248,0.100184319713049,0.00253295309406269,0.0542235303639813,0.0205665546129901
0.299501913432946,0.10018566603811,0.00256302630954178,0.0542221639628981,0.0205652304155514
0.299501809828636,0.100187039718926,0.00258676430455673,0.0542210992463613,0.0205642087602224
0.299501707368878,0.100188450453946,0.00260715394095356,0.0542202066748606,0.0205633598569811
0.299501594209596,0.10018991667002,0.00262977973798204,0.0542192675115201,0.0205624647090724
0.299501475910596,0.100191463593697,0.00266422277983282,0.0542179142508233,0.0205611555255706
0.299501377515089,0.100193112038139,0.00272197781193026,0.0542156943543287,0.0205589794658635
0.299501331887051,0.100194881625071,0.00281081753607134,0.0542122815058204,0.0205556099245269
0.299501347771242,0.100196826851645,0.00293036076830701,0.0542076579315596,0.020551028884017
0.299501466742902,0.100198766060291,0.00307339970425651,0.0542020262885688,0.0205454015877716
0.29950161691069,0.100201186689731,0.00323178736160516,0.0541957509260148,0.0205391304400987
0.299501788949659,0.100204488233458,0.003387845600789,0.0541896010782245,0.0205330196951913
0.299502153337815,0.100208600540695,0.00351518903736556,0.0541846347110182,0.0205280907527766
0.299503032979314,0.100213775441377,0.00360350468871261,0.0541812813326979,0.0205247409971042
0.299504955163788,0.100220807630071,0.00365501893967326,0.0541794648427055,0.0205229277836652
0.299508902126947,0.100230190278661,0.00367010231511916,0.0541790787670773,0.0205225693391993
0.299516401494983,0.100242462954585,0.00365364127551675,0.0541797291782139,0.0205232416697341
0.299530072143731,0.100259051118679,0.00363120137746163,0.054180423791963,0.0205239513635466
0.299552989310929,0.100281164723375,0.00359870428309503,0.0541811515190079,0.0205246867655433
0.299587821032488,0.100309653386018,0.00351144267734258,0.0541828584362045,0.0205263935624279
0.299640184497246,0.100345969694965,0.00336509468876182,0.0541850884717736,0.0205286133193172
0.299718196814391,0.100393087135593,0.00318642282031098,0.0541862503003607,0.0205297727059223
0.299834942027413,0.100454111188363,0.00303214567123531,0.0541843468873318,0.020527829251804
0.300030041001483,0.100520466474694,0.00287706785849828,0.054180880638102,0.020524354552724
0.300341763922404,0.100589923759114,0.00271629511916216,0.054176006272869,0.020519446508962
0.300821598708882,0.100656187017028,0.0025654651563768,0.0541688153195544,0.0205121328109256
0.301544133181991,0.10071289290452,0.00243282883037247,0.054159034081436,0.0205018355855228
0.302608810230871,0.100752923962567,0.00230284577087135,0.0541465962613284,0.0204871610540865
0.304148403686508,0.100770109195567,0.00218211641586513,0.0541312687277888,0.0204649408166826
0.306334671952142,0.100771711799652,0.0020948803212249,0.054113752080534,0.0204306219340204
0.309419164742353,0.100754373507361,0.00200005324907379,0.0540963319814718,0.0203785427197988
0.313615908104162,0.100784471578009,0.00192417899747138,0.0540778915392285,0.0202971490867672
0.319089496051241,0.101003771627253,0.00185003521386153,0.0540563982383764,0.0201738087163697
0.325937771905978,0.101627561155498,0.00176996948295103,0.0540336755666173,0.0199999495135783
0.334076050741273,0.102946643166619,0.0016822149317134,0.0540082658342154,0.0197668749718109
0.343333951262324,0.105188031064215,0.00159055788995455,0.0539792694178552,0.0194670847365464
0.353489619548594,0.108519896160399,0.00148853117374525,0.0539425997285073,0.0190871537498836
0.364143538323637,0.113042812877885,0.00142204308052717,0.0538871904808404,0.0186281813805009
0.375029612573682,0.118534933869643,0.00135335662438475,0.0538089029073566,0.0181000558261113
0.385348596430434,0.124902251777139,0.00128289102033742,0.0537007442819822,0.0175178491702484
0.394404286095308,0.131900535465214,0.00121895824940029,0.0535605975736883,0.0169029239199342
0.401596231574578,0.13933358596318,0.00115565190669017,0.0533927855600375,0.016286307141912
0.406592195804767,0.147013974269223,0.00109716272384546,0.0532098818066696,0.0157032922949171
0.409496328248797,0.154738391913934,0.00104323640440403,0.0530308610393888,0.0151886547457774
0.410415483673171,0.162428508663374,0.000996628813342649,0.0528774329018834,0.01476976647452
0.409528210682158,0.170029510034014,0.000952225201901209,0.0527711245001906,0.0144651732069759
0.407208916957763,0.177430752322994,0.000912052044082292,0.052733080007296,0.0142816121357016
0.403637739832061,0.184611194532116,0.000876039738731507,0.0527770092215602,0.0142121232026694
0.399088821861601,0.191508254137284,0.000845848309028426,0.052910157235371,0.0142391051838199
0.393813772257889,0.198027343738557,0.000817106244218832,0.0531293943230073,0.0143389003056018
0.388004189920008,0.204076239017258,0.000791733960541625,0.0534218105734339,0.0144800222282069
0.381819510160996,0.209565829882075,0.000771252590370199,0.0537665153430342,0.0146349000826074
0.375568395764495,0.214320375208673,0.00075180906632567,0.0541332425979076,0.0147820276472539
0.369248061987698,0.21830838356909,0.000735802540752396,0.0544895835011677,0.0149053803565183
0.362944456743533,0.221471685408852,0.000722201684536428,0.0548006827773965,0.0149895786353759
0.356759221884523,0.223783542637778,0.000711351458666462,0.0550363005226413,0.0150242162149363
0.351169650968993,0.225316908880413,0.000703365337868585,0.0551783734586092,0.0150065310777774
0.34659696138995,0.226127396789984,0.000696544106849263,0.0552325393605383,0.0149470228229161
0.342957570217855,0.226321474668315,0.000691478959323249,0.0551920612994066,0.0148359683008175
0.340177522577784,0.226003552687466,0.000690110045568658,0.055076711848612,0.0146842084595855
0.338106001481165,0.225309410294299,0.000688260430456285,0.054914459885901,0.0145069185812013
0.336667079266623,0.224340962616338,0.00068569896046318,0.0547272068580182,0.014314639945988
0.335759815155338,0.223183399030698,0.000683473803453797,0.0545479194413914,0.0141328888270077
0.335378062125787,0.221860397402269,0.000682348148336209,0.0543959668042079,0.0139787059674162
0.335343398527936,0.220485624642396,0.000683822925538464,0.0542812312261088,0.0138616975069797
0.335578195346409,0.219098127723384,0.000689151021580898,0.0542170950664404,0.0137951432572601
0.335976858282348,0.217751161255086,0.00069419972190855,0.0542181156023227,0.0137936604877029
0.336484405972176,0.216471885500194,0.000698306752575844,0.0542837003674994,0.0138567776673518
0.337076204461914,0.215270328146027,0.000700386202426749,0.0544006935342929,0.013971600333973
0.337773485470903,0.214130874444956,0.000702783587529129,0.0545542411296423,0.0141233292396484
0.338601815705647,0.213030641957375,0.000705013411845016,0.0547312764725958,0.0142990012884585
0.33963424623289,0.211919791070878,0.000703569292816331,0.0549046548960697,0.0144714179678095
0.340876405104115,0.210781062996341,0.000697564259284046,0.0550528365757762,0.0146189917353603
0.342399419780335,0.209565893555108,0.000682186409127488,0.0551594837526664,0.0147252946295519
0.344206656034191,0.208260800660929,0.000666227758959202,0.0552243326228162,0.0147899729632707
0.346279404963361,0.206864987573661,0.000641331988637008,0.0552541512656466,0.014819720423101
0.348663501653331,0.205347829798979,0.000618165434296758,0.0552594432368598,0.0148249917768872
0.351360995184395,0.203701822978836,0.000595376901704699,0.055252920639675,0.0148184714842502
0.354365874101622,0.201924905642535,0.000573205706550501,0.0552433670658655,0.0148089277599634
0.357614230418534,0.200044495859887,0.000562251830769473,0.0552353067985002,0.0148008786062056
0.361073341618317,0.198076242529781,0.000550399260637424,0.055230559659834,0.0147961424188726
0.364636578956484,0.196073571014958,0.000542600009572039,0.0552259571647062,0.0147915510305157
0.368172166211191,0.194103946290266,0.000532079597378229,0.0552201334246947,0.0147857390018592
0.3715466177357,0.192235973010455,0.000526750833622695,0.0552151785008102,0.0147807966822936
0.374624428171734,0.190535815082205,0.000529023794226721,0.055211501439316,0.0147771332179722
0.377342152390516,0.1890364712525,0.000516966544231743,0.0552088663338438,0.0147745128578082
0.379677495120839,0.187746494624957,0.000506654841374801,0.0552068984363553,0.0147725629744161
