alpha,gamma,delta,sigma,tau
0.250006055315063,0.119999540105581,0.0099477964429451,0.0200306161135102,0.020068885945012
0.250012423340037,0.119999052905952,0.00989226550714966,0.020063401549686,0.0201426528245198
0.250018931984459,0.119998540335485,0.00983360056973052,0.0200982179787776,0.0202209893937603
0.250025438247718,0.119998003727011,0.00977193811987489,0.0201349781769888,0.0203036993963691
0.250031884941684,0.119997443927317,0.00970736458473039,0.0201736384097103,0.020390684426511
0.250038278652499,0.119996861599477,0.00963992806720787,0.0202141847471638,0.0204819131384249
0.250044602787382,0.119996257465433,0.00956965363112973,0.020256617448534,0.0205773861114175
0.250050712197004,0.119995632454784,0.00949655990224606,0.0203009360255323,0.0206771022425241
0.25005634856888,0.119994987659587,0.00942067030162042,0.0203471288903756,0.0207810354545763
0.250061323729179,0.119994324210291,0.00934201758674606,0.0203951674879625,0.0208891214940995
0.250065769873738,0.119993643319385,0.00926064192081336,0.0204450046141587,0.021001254147212
0.250070301010482,0.119992946676218,0.00917659403768607,0.0204965697691154,0.0211172747839575
0.250075979518509,0.119992237255189,0.00908995335105718,0.0205497558360876,0.0212369423845588
0.250084090841511,0.119991520369192,0.0090008649981538,0.0206043954109122,0.0213598802795179
0.250095786152004,0.11999080410423,0.00890957965781539,0.0206602394346466,0.0214855280743126
0.250112016121168,0.119990098033723,0.00881643521116303,0.0207169771595076,0.0216131865690069
0.25013446464303,0.119989410799216,0.00872187418903929,0.0207742280502818,0.0217419995364798
0.250165034774723,0.119988752554345,0.0086264184620726,0.0208315667112579,0.021871009828534
0.250205764495691,0.119988138326013,0.00853064881862008,0.0208885437744171,0.0219992063308395
0.250262331223728,0.119987581240623,0.00843516741878064,0.0209447078364662,0.0221255733665037
0.250339924573879,0.11998709907802,0.00834073138475943,0.0209995375505991,0.022248939321435
0.250444074746586,0.119986716215206,0.00824824567069078,0.0210524689054554,0.0223680321960375
0.250583597684627,0.119986455444529,0.00815882111301051,0.0211028484975758,0.0224813832434715
0.250767112030916,0.119986351820728,0.00807383547893227,0.0211499281306051,0.0225873089744618
0.251006345448167,0.119986443222693,0.00799490630361166,0.0211928843741151,0.0226839566023234
0.251318812465961,0.119986764549384,0.00792382334961033,0.0212308602963112,0.0227693979944576
0.251728436425511,0.119987349159718,0.00786181795753165,0.0212633520466081,0.0228424994930872
0.252278276549392,0.119988161011532,0.00780839584796145,0.0212907766520675,0.0229041992888838
0.253038245638562,0.119989063640701,0.00776282869961378,0.021313635966812,0.022955626527333
0.254061917798975,0.119990014332683,0.00772476130911993,0.0213322193337083,0.0229974326018167
0.255387769758886,0.119991085007951,0.00769415815005914,0.02134662346358,0.0230298421114189
0.257061993571011,0.119992372549246,0.00767096155065687,0.0213569520873996,0.0230530796470918
0.259121979604634,0.119994083051318,0.00765500725244197,0.0213633201246352,0.023067412501285
0.2615934693839,0.119996540670017,0.00764572629283422,0.0213660323123261,0.0230735287024693
0.26447395088475,0.120000208334342,0.00764168208553359,0.0213658033987277,0.0230730375283592
0.267715727442798,0.120005739691534,0.00764072075534332,0.0213636639230242,0.0230682777366535
0.271220430526913,0.120014090452726,0.00763935149099288,0.0213612850756423,0.0230629744225208
0.2748124555002,0.120026521521012,0.00763358269929364,0.0213605034055206,0.0230612898103792
0.278380327394087,0.120044072359046,0.00762477541127412,0.0213605423610482,0.0230614695731578
0.281794882326317,0.12006803987962,0.00761429703715744,0.0213606329431849,0.0230617808136079
0.284899239082205,0.120099749428941,0.00759743102057546,0.0213628960613985,0.0230669954691418
0.287606893874447,0.120140086312277,0.00756310897527094,0.0213723308685362,0.0230883797133353
0.289784643521661,0.120190171757759,0.00749907137771608,0.0213943066065972,0.0231380397259544
0.291223635072333,0.120251415556201,0.00739949709668404,0.0214311006474941,0.023221038567121
0.291743697348352,0.120324955418466,0.00727336790014039,0.0214780614822899,0.0233268067599598
0.291326915966836,0.120411053708361,0.00712836622772431,0.0215312541631427,0.0234465274765833
0.290135372207874,0.120509048278968,0.00696605004241811,0.0215897180829586,0.0235781492523683
0.288316407834525,0.120618414633433,0.00679145503963868,0.0216509876089988,0.0237159195323989
0.286077159941382,0.120738386744515,0.00661030544058907,0.0217122784545458,0.0238539063712112
0.283547153093065,0.120867917083717,0.00642604345806988,0.0217721254031589,0.0239884566153501
0.280901879324628,0.121005517666453,0.00624095541911741,0.02182964305477,0.0241178606225633
0.278247047308329,0.121149743764144,0.00605624538738458,0.0218845244171991,0.0242413947012152
0.27573882605146,0.121298795531453,0.00587109646936606,0.0219373741860859,0.0243603545119516
0.273284877930698,0.121451647934615,0.00568559224559859,0.0219883283613787,0.0244750817709654
0.270847998945258,0.121606946900655,0.00550086962440371,0.0220370277377292,0.0245848101325085
0.268488709744456,0.121762888907666,0.00531828481461454,0.0220830005433736,0.0246884773782255
0.266236569611251,0.121917690607974,0.0051394974234466,0.0221256221868782,0.0247846910783006
0.264232156336117,0.122069130190394,0.00496631528125811,0.0221642514515717,0.0248720298993295
0.262208229831179,0.122216162501113,0.00479743478924032,0.022199382342487,0.0249515288947166
0.260225034057029,0.122356475189156,0.00462642802351574,0.0222336594349915,0.0250292084406744
0.258241533169887,0.122488376756801,0.00445683471061385,0.0222656296139291,0.0251018811367075
0.256381124865003,0.122610673099147,0.00428869670591886,0.0222949226156329,0.0251688953479886
0.254597540967502,0.122722341038022,0.00412318529191079,0.0223212053832407,0.0252292617650625
0.252630691081088,0.122822505159295,0.00396141099775061,0.0223444744069157,0.0252830158777404
0.250549168173499,0.122908850591646,0.00380385676095958,0.0223652408240208,0.025331249949285
0.248266579716264,0.122979234509652,0.00365111921293705,0.0223842046445455,0.0253754481591087
0.245810715325213,0.123032338176815,0.0035089211145972,0.0223999431236672,0.0254126758603433
0.243264494810817,0.123067485970093,0.00337086800014124,0.0224157380924536,0.0254493075766479
0.240746861905676,0.123082747529878,0.00323174670204386,0.0224343284271374,0.0254927646526759
0.238099792017292,0.12307786157611,0.00309728727119738,0.0224542244495691,0.0255390021964483
0.23559466137746,0.123052635726226,0.00296806003931343,0.022475664276556,0.0255880443811724
0.233086736246614,0.123007644204684,0.00284508535186736,0.0224986545268542,0.0256408468884442
0.230588812162462,0.122942540610595,0.00272866844313371,0.0225234887843021,0.0256968794199803
0.228279980922263,0.122857005721217,0.00261875150291363,0.0225502502525548,0.0257568897421146
0.226157109152825,0.122751642937162,0.00251551954158342,0.0225789353256046,0.0258213763462673
0.224403573085143,0.122626925357093,0.0024189784534017,0.022609603922227,0.0258891309302212
0.223037063099272,0.122483662305589,0.00233480818360413,0.0226401453829114,0.0259567769640866
0.221805195377599,0.122324495693462,0.00225821420635745,0.0226723192095387,0.0260268407246792
0.22066219308502,0.12215072494541,0.00218406098011764,0.0227080408719587,0.0261043163861871
0.219688953286551,0.121963278634227,0.00211726965219736,0.0227456086875808,0.0261853085789315
0.218928305650745,0.121764833793571,0.00205946069632893,0.022783823337121,0.0262683517618937
0.218127633787366,0.121558226755791,0.0020159861174999,0.0228205456043684,0.0263475021070679
0.217477003707481,0.121344624464933,0.00197056763202399,0.0228612967652871,0.0264357696305101
0.216699515607449,0.121126726694488,0.00193144340140127,0.0229028300077815,0.0265264422077077
0.215816885924847,0.120906054417656,0.00190633543808795,0.0229419930636773,0.0266111997642183
0.214939913822011,0.120683555302085,0.00188293893091386,0.022982601832192,0.0266998413826575
0.214125846831939,0.120460141547803,0.00186806770084002,0.0230217320087332,0.0267846215891826
0.213492349406942,0.120236267958323,0.00185692076751625,0.023060475517896,0.0268686441612662
0.212977465437309,0.120012755687944,0.00184769861344773,0.0230989558211772,0.026952753869454
0.212629774673942,0.119789917143672,0.00183784318387398,0.0231377544156121,0.0270376880613382
0.212524656023637,0.119567994503681,0.00182901925147024,0.023176082581108,0.0271216715393548
0.212655025920872,0.11934755532922,0.00182295538100169,0.0232132255870583,0.0272025032660325
0.212964184520392,0.119129393843386,0.00182150137187118,0.0232483628680086,0.0272794378841373
0.213417498726614,0.118914210559311,0.00182378903937816,0.0232817488316151,0.0273518903122329
0.213996018395169,0.118702640707338,0.001828858152058,0.0233135649561452,0.0274208037875647
0.214708779312247,0.118495193197092,0.00183479227042095,0.0233443392183172,0.0274873579546988
0.215563865569363,0.118292377245887,0.00184120350951664,0.023374084942496,0.0275515185822728
0.216551190098516,0.118094746644322,0.00184827712908634,0.0234026319143119,0.0276128178320917
0.21764083412673,0.117902868771114,0.00185664196351296,0.0234296884635479,0.0276705350356606
0.218787215812989,0.11771728504353,0.00186705738990909,0.0234549629696215,0.0277239747299638
0.219963164589154,0.117538365706571,0.00187979003698222,0.023478380435713,0.0277729303986447
0.221171765260759,0.117366278213267,0.001894314580118,0.023500167094853,0.027817909426459
0.222406566236319,0.117201147366833,0.00191065948367896,0.0235202904671923,0.0278591385187622
0.223644904112299,0.117043107264753,0.00193402992007941,0.023537138273438,0.0278924423301318
0.224908171839475,0.116892063565702,0.00196380732915221,0.0235508396922063,0.0279184316563967
0.226203394698466,0.116747875323767,0.00199736368729037,0.0235621781133464,0.0279388945797621
0.227520434853805,0.11661041719802,0.00203420508023308,0.0235711819991525,0.0279539619374509
0.228679001512478,0.116480140505082,0.00207920251773036,0.0235761863880635,0.0279599772238553
0.229817246860957,0.116356300024938,0.00212602029717753,0.0235792486464432,0.0279616594302436
0.230826811963949,0.116239051809876,0.00217156443869265,0.0235814103207302,0.0279614797329144
0.231591821010225,0.116128621897052,0.00221405799885467,0.0235833073232258,0.0279609279150095
0.232053594442144,0.116024974790061,0.0022535191565317,0.0235849927315114,0.0279601555532781
0.23219075643352,0.115927752197441,0.00228928770546726,0.0235867732650036,0.0279598739416014
0.231957737894715,0.115836413043696,0.00232040828978052,0.0235891088732558,0.0279611212954573
0.231491012631097,0.115749627605492,0.00234590964469549,0.0235925082480009,0.0279650277441424
0.230908854601501,0.115666157866209,0.00236532648940763,0.0235973012509591,0.0279725529090244
0.230025924930918,0.115585841169597,0.00238373375595677,0.0236020638816414,0.0279800235673839
0.228950420341232,0.115507658197604,0.00240154101790814,0.023606790033944,0.027987586124979
0.227533949375229,0.115431350453852,0.00241507144914772,0.0236128943040133,0.0279983203255035
0.225894687547083,0.115355823964543,0.00241719079941416,0.0236229066142434,0.0280181955055935
0.223985956266009,0.115280387294891,0.00240678432684087,0.0236374529770399,0.0280480756589251
0.221974173769759,0.115203877937317,0.00239281016280691,0.0236536440268634,0.0280816555014459
0.219898840939641,0.115125520227236,0.00238087796268181,0.0236697539106256,0.0281152999490076
0.218021024587664,0.115043983892836,0.00237142876648444,0.0236858040011469,0.0281485147167406
0.21633228080307,0.114959088656428,0.00236241309840128,0.0237024892876018,0.0281831541727562
0.214855832257073,0.114870738914702,0.00234978791827886,0.0237211515843513,0.0282222326820809
0.213638435441558,0.114778903876896,0.00233391256573592,0.0237415349879766,0.0282654217779294
0.212777121495418,0.114683577164046,0.00232358007489169,0.0237605727809865,0.0283052991741639
0.212227823960931,0.11458523821624,0.00231158026384791,0.0237805664361046,0.0283473205107044
0.211802117881515,0.114484535267797,0.00230199198977346,0.0238000620208622,0.0283882217604607
0.211528605013338,0.114381575581685,0.00229631612809608,0.0238184737964725,0.0284266831598903
0.211500093569361,0.11427644434308,0.00229434256391997,0.0238357848842976,0.0284626885908914
0.211543710422238,0.114170262329888,0.00229513757106252,0.0238522862192431,0.0284968858503752
0.211966711963765,0.114062544963018,0.00229818008040795,0.0238680409178965,0.0285296496032878
0.212608894350014,0.113954517168445,0.00230209765028535,0.0238834987423073,0.0285615199379926
0.213183083010458,0.113847879640942,0.00230756529403264,0.0238983049337855,0.0285919412559199
0.213830063920385,0.113742808182676,0.00231358705300921,0.0239126679405375,0.0286213695925841
0.214478586041758,0.113640144295338,0.00232020316003254,0.0239264637497313,0.0286495345951479
0.215067139321965,0.113540562011524,0.00232763758320677,0.0239395254445925,0.0286760437227747
0.215597977050863,0.113444353236405,0.0023365341103341,0.0239515584951511,0.0287002095236966
0.216104909478563,0.113351553325722,0.00234730255238521,0.0239623686755258,0.0287215653416231
0.216627498776241,0.113262063569798,0.00236010732474055,0.0239718736951383,0.0287398963909525
0.217191523649134,0.113175757843386,0.00237458935751552,0.0239802119275911,0.0287554906750938
0.217799424166765,0.113092556480426,0.00239026450600433,0.0239875779348202,0.028768771496486
0.218430948575492,0.113012466019728,0.00240724878951104,0.0239939240167586,0.0287796131001652
0.219047116447062,0.112935572870774,0.00242538035958554,0.0239993079622524,0.0287881275349676
0.219604974119489,0.112861967400572,0.00244458271301258,0.0240037645675655,0.0287943743111153
0.220075938234474,0.112791648725708,0.00246509237425595,0.024007222181268,0.0287981826327226
0.220456875327177,0.112724481804188,0.00248710341469426,0.0240096309919545,0.0287994394407041
0.220769817796213,0.112660221063241,0.00251040251324218,0.0240110938239591,0.0287983850929431
0.221026626007759,0.112598673149201,0.00253432729328393,0.0240118789123009,0.028795639655629
0.221207775704571,0.11253980105114,0.00255800296343704,0.0240123302141934,0.028791993509744
0.221440895129328,0.112483121749664,0.00258101685336189,0.024012574400608,0.0287878474014364
0.22185743770402,0.112428180455982,0.00260164700387958,0.0240132927060047,0.0287845527875812
0.222400545111534,0.112375120257359,0.00261962945094254,0.02401458067069,0.028782435100576
0.223153989974012,0.112323599105053,0.00263527761074214,0.0240163165330814,0.0287812340195378
0.224160690168231,0.112273384454514,0.00265017676741041,0.0240178815352312,0.0287796544992493
0.225471579703958,0.11222429914171,0.00266577297599492,0.0240187418143708,0.0287764222144663
0.227078432622666,0.112176298113776,0.00268300877601417,0.0240186103744322,0.0287708174133132
0.229153396425208,0.112129360061658,0.00270375978961962,0.0240167120099166,0.0287611753375404
0.231548721931028,0.112084251021449,0.00273159373311678,0.0240117912129999,0.0287446621376662
0.234294490230278,0.112041290066401,0.00276420875461879,0.0240047554024506,0.0287233128467227
0.237246349033743,0.112001865881279,0.00281341893816634,0.0239910182639366,0.0286868760378719
0.24006773573227,0.1119671005557,0.00286614028615143,0.0239757040626714,0.0286467282363923
0.242584812469696,0.11193848869533,0.0029292325870854,0.0239560002053907,0.0285966024678412
0.244685846851952,0.111916251812033,0.00300174144137177,0.0239322618337284,0.0285372832226299
0.246421279120762,0.111900132414734,0.00307754423890895,0.0239067389006094,0.028473802564943
0.2477164251427,0.111890479483928,0.00315415875108144,0.0238802462909002,0.0284079534791672
0.248609695863573,0.111886664684609,0.00323093958527681,0.0238529649547369,0.0283400994752314
0.249266608419516,0.111887471960842,0.00330767561060521,0.0238248982282737,0.0282702094474367
0.249672863865738,0.111892392810023,0.00338404187699081,0.0237961126117889,0.0281983984863371
0.250008200333744,0.111900312676646,0.00345856270174923,0.0237670884986134,0.0281257191840257
0.250251492271412,0.11191089454757,0.00352953015251177,0.023738462839415,0.0280535770350875
0.250480198074101,0.111923583217229,0.00359542592243624,0.0237108147858136,0.0279832458311608
0.25066993688078,0.111938122148166,0.00365536468737135,0.0236845323256732,0.0279156311342962
0.250850208005503,0.111954221695226,0.00370876523093314,0.0236599331652271,0.0278513461335852
0.251030032521554,0.111971436372805,0.00375522735160114,0.0236373660135291,0.0277910793793454
0.251182627926231,0.11198930944467,0.00379842348693607,0.0236157131978063,0.0277323653544722
0.251291355255715,0.112007287243895,0.00382988603428526,0.0235985518563196,0.0276832245398089
0.251332272257531,0.112024886268625,0.00385013573075389,0.0235860780432365,0.0276440741925401
0.25126571878816,0.112042074382654,0.0038625460220902,0.0235770324896933,0.0276120355120231
0.251040257657569,0.112058941293508,0.00387285167768447,0.0235691469216021,0.0275820329791909
0.250564443458922,0.112075843151326,0.00387937443438798,0.0235631255686216,0.0275554725070393
0.249801497528905,0.112092379330414,0.00387942758856147,0.0235601506667933,0.0275350492879276
0.248887826059177,0.112106946250803,0.00387233941456364,0.0235607112710943,0.0275219147963706
0.247861603589338,0.112118824197527,0.00386113110303168,0.0235638428940144,0.0275138200268876
0.246692774465924,0.112127868376006,0.00384547213418256,0.023570064367037,0.0275118673511554
0.245433890229039,0.112133789106007,0.00382374459488324,0.023580427585885,0.0275185032095813
0.244167676675384,0.112135836900433,0.00379864070386288,0.0235938916174561,0.0275314505276609
0.242837160155291,0.112133887299984,0.00376388695280179,0.0236130349217891,0.0275564114321705
0.241532716790181,0.112127581161423,0.00372955596645949,0.0236334608434433,0.0275834093164221
0.240280858128551,0.112116716294151,0.00368944693282152,0.0236574343240908,0.02761759926329
0.239123936219888,0.112101122964371,0.00364459760845525,0.0236842592504828,0.0276574168575276
0.238121986969849,0.112080621450218,0.00359902614566751,0.0237119880101312,0.0276985000116963
0.23728377174696,0.112055341721662,0.0035562662178802,0.0237388814462734,0.0277369746323891
0.236579520262282,0.112025622844416,0.00351691586378318,0.0237644793386466,0.0277718526507497
0.23593164906628,0.111992007760015,0.00347849816463033,0.023789721989521,0.0278053028272372
0.235262249569484,0.111954979064846,0.00343846411123136,0.0238157110010908,0.0278398686410603
0.234491417292633,0.111914883515678,0.00340345993337649,0.0238397341695465,0.0278695507685825
0.23358808388711,0.111871768758572,0.00336993005031343,0.0238634610192629,0.0278982088482454
0.232590110316799,0.111825323869375,0.00333235225286117,0.0238894261538928,0.0279316366942828
0.231539486186776,0.111775320656393,0.00328849448087269,0.0239187397575411,0.0279724162164166
0.230453827279321,0.111722022498101,0.00323835869038597,0.0239514984038144,0.0280208506160873
0.229326336088928,0.11166573510817,0.00318527479544027,0.0239863569472879,0.0280740032213142
0.228166737474307,0.111606604618503,0.00312927997486376,0.0240233549371742,0.0281321144211335
0.227168905673705,0.111544012580336,0.0030739261082401,0.0240609556255137,0.0281916806301615
0.226445597776619,0.111477665962729,0.00301718758057025,0.0240998248342073,0.028254341491488
0.226033106051271,0.111407611750454,0.00295614696498648,0.0241408559531632,0.0283221611100592
0.225877729304916,0.111334327286686,0.00289647725225256,0.0241808995391367,0.0283880966902325
0.2258108717647,0.111258325204694,0.00282759510498731,0.0242239452095703,0.0284611857029018
0.225758771728888,0.11117996011814,0.0027501077315393,0.0242692269614743,0.0285395581591068
0.225698958149005,0.111099677436995,0.00266979054716608,0.0243137687890949,0.0286165871558644
0.225646579788898,0.111017913729747,0.00259683109504953,0.0243528631802314,0.0286817188664607
